VAR,RMS,IEMG,MAV,WL,WAMP,TARGET[0],TARGET[1],TARGET[2]
17.43671163513793,4.175735685428744,1520.322260494433,3.040644520988865,2388.523286231926,33,1,0,0
39.09176053757255,6.252347733423709,2326.914624008495,4.653829248016989,3711.447455515345,25,1,0,0
16.37104382270225,4.046115537186409,1432.131400139512,2.864262800279025,2336.253034342879,36,1,0,0
68.82792411391557,8.296266592374595,2851.776978142273,5.703553956284545,4455.898831025544,22,1,0,0
180.271262328605,13.42654053493874,3791.774696267881,7.583549392535762,6276.670954895242,28,1,0,0
80.70649396070507,8.98368862811146,2976.330120168253,5.952660240336507,4569.762409484681,10,1,0,0
69.28035203024079,8.323483359909108,2847.419777850041,5.694839555700082,4377.730145356824,17,1,0,0
120.9147070146291,10.9961223980437,3655.833695298042,7.311667390596083,5909.417923607483,38,1,0,0
46.23360061923761,6.799530377488282,2518.061013101178,5.036122026202356,4148.474948230431,35,1,0,0
82.10399787452793,9.0611270007467,2631.535936514289,5.263071873028577,4271.183803270738,18,1,0,0
6.457743163849448,2.541211773448365,935.841339127474,1.871682678254948,1437.124976918656,0,1,0,0
70.63085805533422,8.404218010708847,2625.304347795625,5.25060869559125,4489.189314257196,51,1,0,0
35.87728183465956,5.989867292325375,1629.075743261378,3.258151486522757,2439.999133691554,19,1,0,0
0.8459836947697035,0.9198105938928388,368.3527269541687,0.7367054539083373,509.0991033020559,0,1,0,0
32.17811752362063,5.672594662989956,2047.811810913526,4.095623621827053,3186.613855979936,24,1,0,0
14.13469965766422,3.75973765885646,1112.810915862974,2.225621831725948,1728.757991788966,7,1,0,0
90.40754909085562,9.50833165810734,3040.214390637586,6.080428781275172,4758.560118435673,36,1,0,0
7.124813559131257,2.66923508819535,828.6065349561762,1.657213069912352,1270.756578442184,0,1,0,0
14.06816749826865,3.75077833625083,1025.610771374117,2.051221542748234,1560.501031197927,25,1,0,0
32.02165267606676,5.658771930063879,1994.46325194368,3.988926503887361,3116.013961792411,36,1,0,0
58.98540691809115,7.680197115564125,2460.733923514158,4.921467847028316,4018.247285226744,34,1,0,0
6.325599631894453,2.515076898465038,881.1888883041179,1.762377776608236,1362.720869861851,1,1,0,0
31.52773719953482,5.614956679341072,2046.814345463678,4.093628690927356,3058.327865619968,29,1,0,0
41.44138404473108,6.437499491148913,2148.72349511202,4.29744699022404,3248.038080232576,20,1,0,0
33.36396687015137,5.776164216194792,2026.857358698889,4.053714717397778,3210.626517952744,20,1,0,0
13.56847899811831,3.683542279628616,1280.5051764846,2.561010352969199,1980.583474536909,10,1,0,0
28.36811493433201,5.326204246846956,1524.127657974096,3.048255315948192,2335.050851590943,18,1,0,0
88.96679165263494,9.432225689498882,3613.911994718104,7.227823989436207,6149.852819726737,24,1,0,0
61.52508173903265,7.843794402504055,2746.490689549698,5.492981379099396,4469.800798084491,44,1,0,0
18.50285773698548,4.301495695998222,1535.43810842997,3.07087621685994,2268.047194183705,2,1,0,0
86.94023333402896,9.324178560887225,3552.322270141478,7.104644540282956,5967.800102883306,40,1,0,0
44.79048054899595,6.692575913467607,2364.240536308062,4.728481072616125,3963.151828199143,37,1,0,0
15.71387041256386,3.964101401073614,1387.71549546991,2.775430990939819,2109.986468083988,3,1,0,0
14.83648808603882,3.851893896644892,1279.179479745718,2.558358959491436,1925.371915738368,6,1,0,0
63.96161513949043,7.997637787905584,2655.636946451928,5.311273892903855,4389.949780843476,37,1,0,0
5.914738106637626,2.432023949841068,874.358001585435,1.74871600317087,1292.543492984317,5,1,0,0
12.52661441312716,3.53929717547203,1163.098314296437,2.326196628592874,1797.336864642621,11,1,0,0
15.40125689875822,3.92444360507722,1127.321106036445,2.254642212072889,1705.06126189743,15,1,0,0
19.28957016870011,4.392090276850245,1264.88003953509,2.529760079070179,1939.142699654311,16,1,0,0
25.50230966495445,5.049987526196994,1741.552116754623,3.483104233509246,2710.911088846063,43,1,0,0
2.097771272891581,1.448389304559943,574.9694701881749,1.14993894037635,844.0847304535707,18,1,0,0
29.61145823496621,5.441643275806867,1927.76042885691,3.85552085771382,2996.36021287482,29,1,0,0
1.13494976174918,1.065340253907941,421.048688706852,0.8420973774137039,599.2246966907328,14,1,0,0
31.54713307122641,5.616696289824588,2024.656901190646,4.049313802381292,3181.615839173312,41,1,0,0
7.366652688641688,2.714199716653004,983.43697838142,1.96687395676284,1521.394702072323,26,1,0,0
24.08010393964469,4.907148255690555,1803.634153927816,3.607268307855631,2707.612556691875,39,1,0,0
3.742544334733433,1.9346135667143,628.6928036382056,1.257385607276411,943.7081781727736,6,1,0,0
7.96398470659351,2.822054996403104,875.9199278404333,1.751839855680866,1366.679597915749,14,1,0,0
15.57547082811978,3.946581101506069,1254.751952908955,2.50950390581791,2015.225525112624,19,1,0,0
2.681098314529107,1.637407410484813,573.660298980103,1.147320597960206,853.4311605762404,3,1,0,0
19.16275962847401,4.377564779724131,1221.654416421225,2.44330883284245,1992.827788617207,23,1,0,0
3.907885912592818,1.976837455880234,735.1617063967236,1.470323412793447,1121.364594010903,8,1,0,0
7.007435921844597,2.647179850333432,882.9356757274938,1.765871351454988,1324.364143661631,2,1,0,0
83.3722814512306,9.130842529277311,2868.185602378478,5.736371204756956,4733.593580237397,45,1,0,0
45.9313834943887,6.777278155040656,2043.656848130402,4.087313696260804,3439.078289696578,15,1,0,0
10.15259261414655,3.186329082118116,1098.272757315273,2.196545514630546,1715.288757110194,4,1,0,0
34.29525410004466,5.856260497181739,1813.30179916358,3.626603598327161,2968.710452158567,21,1,0,0
28.13914275302071,5.304634754626751,1615.016245031995,3.23003249006399,2439.265641926612,1,1,0,0
144.485286606991,12.02020333128538,3888.436748792474,7.776873497584949,6298.908791787957,35,1,0,0
4.951303178474985,2.225153294428071,768.2968309171902,1.536593661834381,1168.888306128769,0,1,0,0
4.172095399039115,2.042570902168728,718.8315853994272,1.437663170798854,1087.783913325405,0,1,0,0
106.6960732052935,10.32940859207918,3943.362211366317,7.886724422732634,6483.378204884159,71,1,0,0
135.8143982553245,11.65394359072848,3612.673774383265,7.22534754876653,5864.804628944343,20,1,0,0
91.78400624585514,9.58052373838428,3080.309869694888,6.160619739389777,5193.406880022034,12,1,0,0
28.65173950670065,5.35288738958191,1681.444311115665,3.362888622231329,2696.960778187445,9,1,0,0
101.6351307889487,10.08142618962032,3627.794202565323,7.255588405130647,5959.647826404585,34,1,0,0
16.66213128435173,4.082013098099645,1121.84868864858,2.24369737729716,1795.534415456625,11,1,0,0
3.354713103662295,1.83160647938388,595.7640664362277,1.191528132872455,901.2060989099624,4,1,0,0
90.68230137134866,9.522726170436728,2956.076006747586,5.912152013495172,4826.651435223848,55,1,0,0
43.09877486076974,6.565007303301317,2255.195736544949,4.510391473089899,3670.213777305177,67,1,0,0
2.162828465395267,1.470685165943089,538.659597116923,1.077319194233846,765.9647048167935,0,1,0,0
38.53528066847405,6.207728320820539,1850.051617539182,3.700103235078365,2934.14898110968,26,1,0,0
7.724859977695354,2.779370877697532,1010.787189333029,2.021574378666059,1546.950409692541,5,1,0,0
0.7575298810572457,0.8703729928616698,339.9656412623054,0.6799312825246109,478.6070813858952,0,1,0,0
30.15436843115469,5.491301722710503,1859.383465582422,3.718766931164845,2939.759884745279,49,1,0,0
78.42367399415366,8.855774042610468,3113.54377522053,6.22708755044106,5030.329964242079,28,1,0,0
99.9891563917712,9.999502466918408,3498.754126871297,6.997508253742593,5490.213856517301,39,1,0,0
64.14886873053561,8.009306527633678,2767.450011553372,5.534900023106744,4669.522806507657,45,1,0,0
86.7100427868976,9.31182423700657,3251.405312097403,6.502810624194806,5498.387060715612,42,1,0,0
62.07075508284647,7.878574153288551,2995.485475158184,5.990970950316367,4996.15692800059,44,1,0,0
503.5960328179978,22.44094661612613,6869.901464057033,13.73980292811407,11032.54567211694,54,1,0,0
159.9819611911241,12.64842410340897,4576.107101945752,9.152214203891504,7355.013906592276,39,1,0,0
108.7663674574066,10.4291326421925,3474.6180936988,6.9492361873976,5523.720402326619,31,1,0,0
483.7201746455787,21.99364204134477,7712.669045482411,15.42533809096482,12915.67767680264,51,1,0,0
157.1672993736897,12.53664172749185,3894.736966786892,7.789473933573783,6365.381612454734,10,1,0,0
138.7176107080787,11.77784446261414,3657.681772200077,7.315363544400153,5997.066617108914,9,1,0,0
36.13540009106883,6.011284814125135,2176.536947727857,4.353073895455714,3273.602897694683,26,1,0,0
45.28126781417518,6.729136616153813,1965.22706065863,3.93045412131726,3151.189930372771,26,1,0,0
47.34411329219861,6.880708166523279,2242.282856083994,4.484565712167988,3514.702904998856,40,1,0,0
17.41192637896387,4.172807208134649,1580.872731246362,3.161745462492724,2514.056952525827,22,1,0,0
59.13342869676673,7.689877387178095,2544.90980025745,5.0898196005149,3774.253756065003,15,1,0,0
188.7793299006058,13.73970025668546,4176.596990591916,8.35319398118383,6934.702538273228,48,1,0,0
359.221611882968,18.95314749191606,5015.641675836508,10.03128335167301,8353.087308385428,47,0,1,0
183.7848316454377,13.55673099681445,3655.334844190606,7.310669688381213,5995.755717072667,22,0,1,0
44.03279520045947,6.635722915029397,1802.491370278298,3.604982740556597,2905.260932244872,1,0,1,0
387.6993774052056,19.6901514375629,5939.48449924408,11.87896899848816,9413.768221765138,22,0,1,0
496.4845557518097,22.28194260505088,6962.925067467125,13.92585013493425,11781.0113838809,42,0,1,0
345.6611460026514,18.59196803808545,5870.651117151591,11.74130223430318,9584.910631536915,36,0,1,0
370.8593874662871,19.25772668754175,6621.924153869933,13.24384830773986,10497.29740044081,40,0,1,0
569.8001888646724,23.87049382712813,7689.434242208497,15.37886848441699,12131.00067445588,47,0,1,0
481.468483328516,21.94241685458531,6700.594541581755,13.40118908316351,11076.82952822568,44,0,1,0
119.4685606955667,10.9301746632011,3568.297808290542,7.136595616581084,5788.955997690763,9,0,1,0
48.3149474170369,6.950911261469518,2167.05327542832,4.334106550856641,3586.666328210185,12,0,1,0
9.50208675429012,3.082664403492665,996.6517015568708,1.993303403113742,1528.66315867881,0,0,1,0
166.2571007722092,12.89421113314481,3911.12246781814,7.822244935636279,6270.423016908669,45,0,1,0
43.74952384866645,6.614434165571724,1740.723607706943,3.481447215413886,2831.946819683825,14,0,1,0
218.1790507337396,14.77088571427752,5151.66995076089,10.30333990152178,8388.369817232933,36,0,1,0
51.40040951996236,7.169408888621172,1998.451258792727,3.996902517585454,3150.77073180974,24,0,1,0
168.670468577715,12.98732682064704,4581.242572521478,9.162485145042956,7605.07918243112,61,0,1,0
113.3007822860612,10.64428402129492,3167.957081108868,6.335914162217737,4994.419924730993,34,0,1,0
130.4491268117229,11.42161921592171,3763.387794460569,7.526775588921138,6012.918104480254,43,0,1,0
100.0975318313069,10.00497048654009,3499.840207420586,6.999680414841171,5648.498882501727,17,0,1,0
222.5723459318445,14.91888422860899,4883.831482451817,9.767662964903634,7945.460854124701,52,0,1,0
63.81954952550797,7.98883895942469,2156.115985200908,4.312231970401815,3421.027904764543,10,0,1,0
19.66045896328981,4.434013201345014,1597.46092713139,3.19492185426278,2435.140347574466,0,0,1,0
113.3898220820917,10.64864506778081,3000.559243376225,6.00111848675245,4659.415383072992,24,0,1,0
234.8737076043982,15.32560105134092,5030.761477665382,10.06152295533076,8079.103424499933,48,0,1,0
103.5882111565275,10.17783738551399,3690.804729932161,7.381609459864321,5972.334984265799,36,0,1,0
209.0434101793729,14.45834325348454,5094.587406924527,10.18917481384906,8121.958415665054,43,0,1,0
259.8663360692771,16.12037022124137,5885.518388391773,11.77103677678354,9475.909064092226,44,0,1,0
126.7091298098325,11.25652915026067,4094.223149583036,8.18844629916607,6378.871397445091,30,0,1,0
164.6820457414974,12.83288910810794,4218.2941074511,8.4365882149022,6929.361759057387,37,0,1,0
119.4707283309685,10.93029842256955,3384.85874346362,6.76971748692724,5333.45677306186,19,0,1,0
117.1581143178253,10.82407667972026,3542.538229422881,7.085076458845762,5601.728299679924,30,0,1,0
334.3798945047992,18.28605970943948,5561.048384627631,11.12209676925526,9016.303065495518,41,0,1,0
228.6504564857455,15.12120461768414,5128.630124462761,10.25726024892552,8434.061777070394,68,0,1,0
8.653354407463494,2.941695125767734,830.2601681176764,1.660520336235353,1258.708171106642,0,0,1,0
377.7716921340564,19.43637580536639,6082.16785159835,12.1643357031967,10040.48850892496,54,0,1,0
126.3909441026266,11.24238490115415,3399.253401759365,6.79850680351873,5305.4967569224,28,0,1,0
145.1477423108811,12.04773576660761,4330.318249577824,8.660636499155647,7227.403595581973,34,0,1,0
86.95008335442634,9.324763035136652,2481.820709725008,4.963641419450017,3915.733526929254,11,0,1,0
35.39552460089799,5.949414316916143,1809.821731822514,3.619643463645029,2916.308385501719,8,0,1,0
160.8061946931795,12.6809501364556,4327.505718046998,8.655011436093995,7220.853854368237,61,0,1,0
87.8803557203046,9.374529879670549,3560.344853577766,7.120689707155531,5696.674539182868,30,0,1,0
3.418742148305762,1.84907228322502,713.3336997643338,1.426667399528668,1090.611539997273,0,0,1,0
79.78226377736664,8.93216804978794,3161.285949101101,6.322571898202202,5194.193851770643,36,0,1,0
133.8486972688706,11.56932185552234,4458.884388978253,8.917768777956505,7216.068743531679,55,0,1,0
43.39265867908561,6.587311077706247,1926.568897499742,3.853137794999483,2949.268323545301,17,0,1,0
119.7064350102593,10.94105858294078,3983.590769983449,7.967181539966898,6315.291829850781,41,0,1,0
56.11469797742154,7.49099808945496,2626.31635368967,5.252632707379341,4193.581130474665,25,0,1,0
84.8768804839078,9.212883278661122,2661.73887673838,5.32347775347676,4170.691403240334,27,0,1,0
99.56865398760482,9.9784345614891,3478.344730205115,6.956689460410231,5482.683119294164,38,0,1,0
118.6006583832902,10.89042242410848,2461.233147713596,4.922466295427192,3858.019541346577,14,0,1,0
496.1090433319728,22.27351162194324,7617.532861114559,15.23506572222912,12543.6513470172,59,0,1,0
123.848816825686,11.12875095414079,3562.809705549367,7.125619411098734,5851.574605847832,29,0,1,0
115.6334499472635,10.75372647095633,2281.004026028363,4.562008052056726,3737.022407638174,22,0,1,0
144.9458582949778,12.03936477241611,3657.977581226685,7.31595516245337,6019.452897805802,36,0,1,0
93.52277219182666,9.67076478798971,2540.016998373819,5.080033996747638,4120.383862618141,21,0,1,0
221.7197948932529,14.89026018495437,4588.914111633602,9.177828223267204,7509.181641709551,35,0,1,0
343.9523503807748,18.54596847345901,6483.488898408277,12.96697779681655,11026.9233887124,37,0,1,0
327.2703629180189,18.09063800416838,5504.630710001798,11.0092614200036,9304.735244701187,21,0,1,0
492.6580069598762,22.19590292207782,7884.091758233722,15.76818351646744,13155.88646778302,45,0,1,0
85.41204773252136,9.241864610755677,2499.645018362484,4.999290036724968,4166.947078776584,12,0,1,0
216.2610267232016,14.70581893295781,5157.559561059879,10.31511912211976,8719.40337499829,58,0,1,0
1.695582295610363,1.302148714812839,516.8704393424706,1.033740878684941,767.733306537126,0,0,1,0
124.0154126940705,11.13622276290229,3185.914694066848,6.371829388133696,5165.852328243477,31,0,1,0
225.243051516365,15.00812259712808,4477.067774432609,8.954135548865219,7312.359681416096,25,0,1,0
565.6065638521932,23.78284942602435,8783.9078957743,17.5678157915486,14383.20257712274,62,0,1,0
197.3104429228622,14.04674297300832,4856.764034349408,9.713528068698816,8073.054216734459,39,0,1,0
259.4817564495027,16.1084394165761,4815.656560954085,9.63131312190817,7639.276113781551,36,0,1,0
209.9803011954943,14.49072657382687,3628.133125169671,7.256266250339342,5856.355455600202,24,0,1,0
114.6495480264577,10.70746061445263,3491.280670905714,6.982561341811428,5718.168895856359,55,0,1,0
10.87603137409919,3.297910095629776,988.7119648044612,1.977423929608922,1555.078758121854,0,0,1,0
482.488123998911,21.96572674911408,6637.363365437532,13.27472673087506,10326.9894057066,38,0,1,0
305.4773585437741,17.47855388532503,6348.611479722429,12.69722295944486,9944.100005945147,64,0,1,0
370.4609335874382,19.2473635782703,5769.386892787361,11.53877378557472,9477.55404885256,41,0,1,0
7.092380054492774,2.663378862117596,838.9273873401596,1.677854774680319,1295.609588911377,0,0,1,0
221.7490664627694,14.89124374786747,4940.414704313453,9.880829408626903,7788.671343550099,27,0,1,0
196.0244084179397,14.00089368639004,4554.601015741418,9.109202031482836,7386.386378411943,34,0,1,0
503.7548177040519,22.44456084151409,8174.714305485735,16.34942861097147,13128.31874997389,47,0,1,0
358.5644669498042,18.93583778285326,6954.773052502173,13.90954610500434,11189.56567662763,35,0,1,0
61.3292559489557,7.831299803898307,2672.484488932748,5.344968977865496,4248.260560881949,3,0,1,0
304.6621558728623,17.45459066585002,5428.8562728924,10.8577125457848,8753.259885323843,41,0,1,0
298.1234637065063,17.26637159341549,6175.528520250906,12.35105704050181,10100.77730623647,37,0,1,0
240.2186357311306,15.49899101010458,4889.177812801896,9.778355625603792,7871.546798635065,55,0,1,0
262.394435934386,16.19872827173747,5279.176018849667,10.55835203769934,8455.494941704572,33,0,1,0
20.39665409365233,4.516268761096403,1223.496867764251,2.446993735528503,1866.795544476694,1,0,1,0
290.8873121930014,17.05556485013661,6074.643732900875,12.14928746580175,9685.136555060417,21,0,1,0
111.4710090244843,10.55798427560632,3719.622854083875,7.43924570816775,6165.181603671898,68,0,1,0
122.9997443722497,11.09052506492879,3938.457817344397,7.876915634688794,6382.323227306729,20,0,1,0
178.2872354307994,13.3524383596635,3805.409956154741,7.610819912309482,6242.086710094363,30,0,1,0
314.0230758236718,17.72077762467415,5679.775638603129,11.35955127720626,9352.220981457163,29,0,1,0
126.198296179888,11.23381112300149,4068.377605455504,8.136755210911007,6624.141845983738,9,0,1,0
260.2066932569318,16.13094242392259,5465.947826738496,10.93189565347699,8896.297251215834,52,0,1,0
13.8866149322493,3.726476045582472,1310.178837752067,2.620357675504135,1991.541974607089,32,0,0,1
25.06309227090943,5.00631681771778,1582.870053524068,3.165740107048136,2433.82624041142,25,0,0,1
43.91233365112832,6.626673428311482,2396.865987071616,4.793731974143232,3842.749483962975,25,0,0,1
67.72097009835583,8.229285722666424,2789.864018789851,5.579728037579701,4381.932325255098,15,0,0,1
63.24879093065457,7.952911507232802,2665.85465800748,5.331709316014961,4277.933611407925,20,0,0,1
168.614046327194,12.98516698536759,4458.341089873471,8.916682179746942,7338.396206693534,47,0,0,1
62.22837119730561,7.888518879589908,3151.384632581339,6.302769265162678,4920.556384947646,38,0,0,1
169.6447139235076,13.02479393408672,4854.633546486417,9.709267092972834,7534.195242882046,24,0,0,1
43.21882376967269,6.574103955695845,2120.744749610135,4.24148949922027,3398.006866068576,22,0,0,1
31.43888510904337,5.607043954429044,2088.083700468388,4.176167400936775,3393.335509035799,15,0,0,1
65.44250755390883,8.089656414800032,2985.764784983152,5.971529569966305,4775.453729526207,20,0,0,1
30.65102330012669,5.536343332463305,1980.205474865179,3.960410949730358,3128.254944693457,20,0,0,1
80.88346658698175,8.9935305083409,3337.914496095724,6.675828992191448,5307.944641786273,18,0,0,1
20.28503947714968,4.503960154920739,1443.96691165918,2.88793382331836,2201.907377668179,6,0,0,1
48.24144155935379,6.945619697865632,2527.160054738789,5.054320109477578,3986.849407684259,32,0,0,1
134.5759902309518,11.6006926966398,4115.524530884273,8.231049061768546,6509.849824507213,32,0,0,1
71.0344425198532,8.428204342449709,3084.331742564795,6.168663485129589,5128.472278859511,48,0,0,1
51.30628166456181,7.162892345012044,2758.524819731593,5.517049639463186,4386.740690977615,14,0,0,1
1.006209683914155,1.003133671832103,398.9024313571209,0.7978048627142417,564.3623489287083,0,0,0,1
65.25979472263306,8.078354578009955,2914.495572472557,5.828991144945114,4783.329433788545,27,0,0,1
159.7995524786796,12.64118580525127,4803.809850879035,9.60761970175807,7831.781091543872,31,0,0,1
83.55490312235523,9.14089510271376,3471.14946765267,6.94229893530534,5586.628642360751,39,0,0,1
40.14563029330535,6.336111259270823,2372.650233961906,4.745300467923812,3722.994309327756,39,0,0,1
63.26748617030723,7.954110804989661,2853.461206567409,5.706922413134818,4646.442653140371,37,0,0,1
57.61325592003873,7.590343735775823,2865.102006903793,5.730204013807587,4637.222281516471,38,0,0,1
98.36438013307745,9.91791039714446,3668.381355247976,7.336762710495951,5863.874139217829,28,0,0,1
72.29970379359871,8.502933827827922,3164.505113066884,6.329010226133769,4920.385026828861,29,0,0,1
68.38538941042918,8.26955528562903,3149.150674207423,6.298301348414846,5057.546431839207,17,0,0,1
78.78622728486927,8.876184515552403,3296.694650822156,6.593389301644312,5181.163135402085,37,0,0,1
85.41090007385746,9.241856011419555,3258.108481725006,6.516216963450013,5187.845122142329,34,0,0,1
106.3988256939152,10.31501868450255,3973.523781136205,7.94704756227241,6595.06643058431,28,0,0,1
132.4622721791056,11.50946787741928,4553.068824443503,9.106137648887008,7322.74749525928,36,0,0,1
80.39050972453741,8.966176665560981,3278.576297212112,6.557152594424224,5363.63690240755,48,0,0,1
75.2742780050642,8.676076780682376,3140.762746793512,6.281525493587024,5058.004245357937,37,0,0,1
94.01348946928036,9.696061272261645,3679.134563802436,7.358269127604872,5938.757094362762,39,0,0,1
39.45961594550023,6.28169562862182,2378.647298285215,4.757294596570429,3888.939869373276,22,0,0,1
66.7294101912468,8.168808500460722,2858.730833863581,5.717461667727163,4564.366659603889,28,0,0,1
69.41717733076922,8.331710517347503,2791.201903759332,5.582403807518664,4510.330398244789,35,0,0,1
49.68779249416565,7.048960932134611,2472.49718974562,4.94499437949124,3801.691139442009,38,0,0,1
43.17651166416975,6.570888383579901,2341.945423376116,4.683890846752232,3804.950458292558,24,0,0,1
82.42965454331026,9.07908947033986,3410.780456251383,6.821560912502766,5407.372300900837,44,0,0,1
55.51379141674839,7.450768281000433,2679.473039761293,5.358946079522585,4283.658224518062,20,0,0,1
65.13911683808142,8.07090097395659,2590.382314329797,5.180764628659595,4005.520491318001,25,0,0,1
64.40549244508415,8.02530392823555,3086.42879125521,6.17285758251042,4917.750594192011,30,0,0,1
78.24284511002142,8.845516813215836,3222.115587843531,6.444231175687063,5216.694252874741,49,0,0,1
27.33870976141827,5.228646363107085,2000.689575056873,4.001379150113747,3274.420148119653,14,0,0,1
94.58707580674562,9.725589213271194,3584.6386079114,7.169277215822799,5838.827298439857,36,0,0,1
55.45433929218805,7.446779361229439,2775.727209263889,5.551454418527778,4549.083072062307,27,0,0,1
39.39091447475466,6.276222124431584,2380.008643784658,4.760017287569316,3862.395940736059,22,0,0,1
24.18445197561796,4.917925782519609,1478.503084751029,2.957006169502058,2182.100052277603,20,0,0,1
1.097483427799904,1.047628414886778,411.369764035998,0.8227395280719959,592.4692064905684,0,0,0,1
167.9139239332813,12.95817838551392,4171.034400786729,8.342068801573458,6803.463562118342,32,0,0,1
46.08113782872938,6.788318990368807,1840.458573713595,3.680917147427189,3006.419400675404,12,0,0,1
153.8034082675362,12.40175434125959,4567.586432721349,9.1351728654427,7259.990918787093,24,0,0,1
122.174778850274,11.0532700894716,3815.062158352328,7.630124316704655,6304.104785476411,16,0,0,1
156.1885545854803,12.49777465340218,4828.064379611999,9.656128759223998,8096.03542612823,29,0,0,1
105.2706216228206,10.26016819513309,3664.637999791782,7.329275999583563,6104.536536198971,29,0,0,1
122.3612938347386,11.06171764683994,3601.866727225043,7.203733454450086,5984.687151029178,29,0,0,1
2.408283954320571,1.551877709217182,586.82652260922,1.17365304521844,912.5349697438764,0,0,0,1
1.039761163656884,1.01969041049295,396.3589406505832,0.7927178813011665,574.5617265172039,0,0,0,1
53.71556076576941,7.329090599728593,2162.324758660533,4.324649517321065,3588.912533911861,6,0,0,1
174.6846253341526,13.21698199274862,4990.856156572645,9.98171231314529,8280.195771901623,35,0,0,1
182.4188731002658,13.50625782443296,4869.149294628416,9.738298589256832,8174.459352602438,23,0,0,1
62.65597728278283,7.91555350180788,2697.288253518698,5.394576507037397,4213.697928772674,9,0,0,1
22.54588591673752,4.748272974130239,1791.297946039478,3.582595892078956,2987.093918980837,0,0,0,1
80.5130739667094,8.972910063376812,2781.225993999368,5.562451987998735,4355.073069403609,29,0,0,1
187.7236317684266,13.70122943967129,4876.363435159879,9.752726870319758,8062.988829990381,33,0,0,1
18.05452055146346,4.249067182441275,1545.52626187048,3.091052523740961,2387.564452111643,0,0,0,1
298.6644416260435,17.28230975798825,6647.989668456054,13.29597933691211,10677.04429595316,42,0,0,1
309.4430130136341,17.59132296267918,6239.207643514012,12.47841528702802,10364.87052323574,37,0,0,1
11.40089177086192,3.376534641264841,1286.867446737284,2.573734893474568,2018.482750125575,0,0,0,1
259.8158432966991,16.11880662491163,6110.124513153298,12.2202490263066,9509.63170425119,32,0,0,1
190.5832810459571,13.80522966928736,4538.342243790031,9.076684487580062,7373.413910585812,32,0,0,1
0.8404478882507073,0.9167598956353278,359.1089136324434,0.7182178272648867,519.8846690265436,21,0,0,1
168.3387758275734,12.97460475572548,4366.415109815065,8.73283021963013,6968.158827936868,41,0,0,1
115.0568377892804,10.72646073391297,3369.62914754264,6.73925829508528,5592.590185035548,34,0,0,1
170.1792343204562,13.045276442916,4666.43988765317,9.33287977530634,7668.266952069765,37,0,0,1
38.23020788147879,6.183260214083545,1736.221265065209,3.472442530130418,2708.487152633773,11,0,0,1
162.2580785733279,12.73812995674995,3631.974482454854,7.263948964909708,5918.005338057934,34,0,0,1
170.5628694783499,13.06002380798221,5057.52108258352,10.11504216516704,8113.820775440426,46,0,0,1
63.26052674742503,7.953682393467084,2877.495933685252,5.754991867370503,4588.062995725791,31,0,0,1
38.67474160888645,6.219077469965256,1980.189177603783,3.960378355207566,3148.319710945874,18,0,0,1
25.95823264436904,5.094970269592295,1375.203372294535,2.750406744589069,2030.935734057722,4,0,0,1
75.82873519223814,8.707975492619342,3289.038810837895,6.578077621675789,5178.321325306606,27,0,0,1
27.07689256014528,5.203565946973659,1702.376852862855,3.404753705725709,2553.152162292473,6,0,0,1
30.06227587834672,5.482913047817502,1962.886035833454,3.925772071666907,3145.610196784605,9,0,0,1
76.9990474848669,8.774913058621957,3220.211224481801,6.440422448963601,5245.635026534259,19,0,0,1
54.8904312200896,7.408820861385869,2729.545928580612,5.459091857161224,4281.682862846495,18,0,0,1
130.5846026864364,11.42737359834308,4401.996660471761,8.803993320943523,7135.905777871842,31,0,0,1
140.6292471725932,11.85875133432347,4275.43530188481,8.550870603769619,6744.83560298563,26,0,0,1
59.16148060683138,7.691754436649603,3020.486041200795,6.04097208240159,4801.228307929965,27,0,0,1
73.1816815770563,8.554630170103872,3041.414237496442,6.082828474992883,5042.210830704737,45,0,0,1
